time,flux,flux_err
1683.3564705189142,-19165.498,51.74278
1683.3578594148944,-19523.283,51.720253
1683.3592483106422,-19876.45,51.69932
1683.360637206622,-20180.451,51.686375
1683.3620261023686,-20730.244,51.6357
1683.363414998349,-20872.824,51.64623
1683.3648038940964,-21412.977,51.58973
1683.366192790077,-21216.912,51.66968
1683.3675816858245,-21698.219,51.618645
1683.3689705818042,-21724.389,51.649876
1683.3703594775511,-21553.348,51.715313
1683.3717483735313,-21499.213,51.765606
1683.3731372692791,-21358.857,51.821716
1683.3745261652593,-21303.336,51.869858
1683.3759150610072,-20725.496,52.009296
1683.3773039567545,-20335.447,52.112755
1683.3786928527343,-19816.393,52.235306
1683.3800817484819,-19452.006,52.330635
1683.38147064423,-18694.748,52.49357
1683.3828595402097,-17891.707,52.654434
1683.3842484359566,-16876.965,52.863068
1683.3856373317044,-15585.474,53.113136
1683.3870262274513,-14223.275,53.3752
1683.3884151231987,-12462.296,53.70288
1683.389804018947,-10496.821,54.05797
1683.3911929149267,-8452.663,54.422634
1683.3925818106736,-6007.666,54.85493
1683.393970706421,-3525.3315,55.28212
1683.395359602168,-79.614624,55.86428
1683.3967484979157,3758.4636,56.511932
1683.3981373936638,7322.2485,57.09485
1683.3995262894105,11414.931,57.76932
1683.4009151851574,15781.292,58.470165
1683.4023040809052,19837.99,59.110973
1683.403692976652,23616.307,59.699467
1683.4050818723995,26724.127,60.1811
1683.4064707681478,29383.428,60.601006
1683.4078596638947,31323.027,60.90555
1683.4092485596416,32127.455,61.026398
1683.4106374551561,33019.785,61.17121
1683.4120263509044,33719.305,61.2761
1683.4134152466522,34287.926,61.373398
1683.4148041423991,35010.19,61.48313
1683.4161930381465,36372.76,61.69475
1683.4175819338934,37218.4,61.812954
1683.4189708294075,38769.3,62.049545
1683.4203597251558,40537.38,62.302654
1683.4217486209031,42368.645,62.57456
1683.4231375164172,44859.637,62.93197
1683.4245264121648,47098.363,63.2539
1683.4259153079115,49731.094,63.633522
1683.4273042034256,51842.46,63.926193
1683.4300819949217,57169.008,64.67043
1683.4314708904358,59508.97,64.999504
1683.4328597861831,61422.098,65.25438
1683.4342486816972,64005.055,65.616844
1683.4356375774446,66062.19,65.889885
1683.43702647296,67982.61,66.14377
1683.438415368707,69443.836,66.33103
1683.439804264221,71420.43,66.590904
1683.4411931599689,71956.76,66.66019
1683.4425820554834,73677.1,66.8881
1683.4439709512308,74401.68,66.96701
1683.4453598467458,75098.11,67.04587
1683.4467487422603,75497.62,67.09401
1683.4481376380072,76755.92,67.24666
1683.4495265335213,76479.13,67.20023
1683.450915429036,76947.734,67.242325
1683.4523043247837,77159.14,67.258484
1683.4536932202982,76509.92,67.158424
1683.4550821158132,76772.73,67.17895
1683.45647101156,76687.83,67.151855
1683.4578599070742,76091.586,67.04958
1683.4592488025887,76084.8,67.0327
1683.4606376981033,74908.35,66.858315
1683.462026593851,74821.9,66.83089
1683.4634154893656,74678.555,66.78989
1683.4648043848797,74263.28,66.713104
1683.4661932803938,73432.125,66.58335
1683.4675821759092,72884.0,66.49071
1683.468971071424,72534.85,66.421616
1683.4703599669378,71403.33,66.246605
1683.4717488624528,71090.58,66.18302
1683.4731377582002,70942.92,66.14384
1683.4745266537143,68855.79,65.83482
1683.4759155492293,68844.47,65.80617
1683.4773044447445,68371.29,65.7336
1683.4786933402584,67318.58,65.555626
1683.4800822357724,67767.78,65.60037
1683.4814711312874,67113.6,65.49338
1683.4828600268015,66262.445,65.35611
1683.4842489220832,66032.33,65.30399
1683.4856378175987,65525.81,65.209045
1683.4870267131128,64558.848,65.05565
1683.4884156086268,64534.57,65.034096
1683.4898045041414,64164.99,64.957855
1683.4911933996555,63347.043,64.82615
1683.4925822951705,62501.973,64.68187
1683.493971190686,62109.402,64.60967
1683.495360085967,62172.613,64.60025
1683.4967489814808,61820.36,64.53113
1683.4981378769958,61322.22,64.436966
1683.4995267725103,61044.312,64.38196
1683.5009156677925,59956.83,64.2048
1683.502304563307,60083.664,64.20394
1683.503693458822,58459.234,63.942223
1683.5050823543359,59310.008,64.05641
1683.5064712496169,59008.773,63.98981
1683.5078601451323,58561.18,63.908028
1683.5092490406473,57925.957,63.79549
1683.5106379359286,57544.207,63.72659
1683.512026831443,57096.844,63.645508
1683.5134157267244,56889.61,63.592148
1683.5148046222384,55610.508,63.38034
1683.516193517754,55772.332,63.385334
1683.5175824130356,55043.613,63.26606
1683.5189713085497,55305.324,63.288403
1683.5203602038318,54606.473,63.165813
1683.5217490993457,54467.6,63.138588
1683.5231379946267,54214.25,63.07668
1683.5245268901422,53674.242,62.980877
1683.5259157854243,53636.906,62.955433
1683.5273046809384,53270.16,62.886517
1683.5286935762201,52447.59,62.743996
1683.5300824717342,52903.4,62.802113
1683.531471367016,52283.992,62.685623
1683.5328602625314,51726.992,62.595345
1683.5342491578135,51634.082,62.563927
1683.5356380530948,51784.133,62.571682
1683.5370269486089,51855.766,62.5614
1683.5384158438906,51580.844,62.50561
1683.5398047391725,50694.6,62.365856
1683.5411936346873,50483.57,62.3132
1683.542582529969,50045.098,62.23211
1683.5439714252502,50421.63,62.277775
1683.5453603207643,49906.375,62.184948
1683.5467492160465,49176.5,62.062874
1683.5481381113282,49694.023,62.122234
1683.5495270066099,48692.77,61.96468
1683.5509159021249,48415.535,61.904137
1683.5523047974061,47730.75,61.787373
1683.5536936926874,47806.156,61.786186
1683.5564714832512,47212.62,61.66637
1683.5578603787658,47133.793,61.641506
1683.5592492740475,47394.527,61.669937
1683.5606381693287,47162.164,61.623802
1683.56202706461,46679.492,61.53265
1683.5634159598926,46375.96,61.47458
1683.5648048551752,45754.613,61.362167
1683.5689715410194,44804.684,61.180183
1683.5703604363007,45300.316,61.24151
1683.5717493315829,43850.81,61.01939
1683.5745271221465,44131.258,61.03474
1683.5773049127097,43727.58,60.944435
1683.578693807991,44052.84,60.98579
1683.5800827032726,42820.13,60.7942
1683.5814715985553,43306.92,60.83666
1683.5828604938365,42853.168,60.77032
1683.5842493891178,42620.254,60.717403
1683.5856382843995,42414.61,60.677578
1683.5884160749633,41569.688,60.532455
1683.5898049702455,40984.332,60.42879
1683.5911938655267,41290.36,60.45876
1683.592582760575,40418.004,60.329506
1683.5939716558569,40981.746,60.40473
1683.5953605511395,40313.05,60.28879
1683.5967494464212,39958.316,60.22083
1683.5981383417025,39304.477,60.116337
1683.5995272367518,39707.535,60.165863
1683.6009161320328,38429.656,59.956333
1683.6023050273138,38844.055,60.01404
1683.6036939225964,38720.02,59.991623
1683.6050828176458,38604.207,59.950684
1683.6092495032572,37370.633,59.746872
1683.6148050841512,37308.348,59.712593
1683.6161939794333,36033.434,59.512978
1683.6175828744817,36085.805,59.518993
1683.6189717697634,35080.074,59.36103
1683.620360665046,35364.652,59.396374
1683.6217495600945,34708.81,59.285168
1683.6231384553757,34878.566,59.307636
1683.6245273504246,34306.457,59.215107
1683.6259162457068,34284.043,59.208218
1683.6273051407557,33965.473,59.152935
1683.6286940360376,33545.863,59.083126
1683.6300829313195,33526.71,59.083675
1683.631471826368,32181.834,58.858456
1683.6328607216492,32833.93,58.963333
1683.634249616698,32829.023,58.96525
1683.6356385117474,31900.031,58.80795
1683.638416302078,31218.844,58.70966
1683.6425829876898,30985.883,58.666237
1683.6439718827387,30559.959,58.59788
1683.6453607780209,30502.27,58.589523
1683.6467496730697,29909.33,58.503544
1683.6481385681182,29958.955,58.51282
1683.6495274633994,29644.229,58.46017
1683.6509163584492,28928.945,58.343075
1683.652305253498,28051.63,58.21151
1683.6550830438284,27610.838,58.14808
1683.6564719388775,27329.0,58.0983
1683.6578608341588,27340.566,58.10514
1683.6592497292077,26639.91,57.99627
1683.6606386242574,26519.996,57.99023
1683.6620275193059,26171.623,57.926403
1683.6634164145871,25790.969,57.874947
1683.664805309636,25607.29,57.8403
1683.6661942046844,24342.348,57.64581
1683.6675830997337,24678.691,57.722443
1683.6689719950164,24777.867,57.731365
1683.6703608900648,24193.115,57.646297
1683.6717497851132,23932.129,57.617634
1683.673138680162,23427.488,57.537025
1683.6745275752105,23254.36,57.516697
1683.6759164704922,23256.928,57.51978
1683.677305365542,22925.666,57.47897
1683.6786942605904,22301.418,57.378044
1683.6800831556388,21712.531,57.287315
1683.681472050688,21216.49,57.211388
1683.682860945737,21077.418,57.208626
1683.684249840786,21324.951,57.2517
1683.6856387358353,21078.691,57.220352
1683.687027631117,20420.535,57.125267
1683.6884165261654,19859.184,57.0427
1683.6898054212138,19912.643,57.057957
1683.6911943162636,19742.766,57.04935
1683.6925832113125,19415.838,56.994484
1683.693972106361,17942.15,56.76477
1683.6953610014102,18652.63,56.888798
1683.6967498964586,18421.049,56.87483
1683.698138791507,17959.98,56.80178
1683.6995276865566,17666.21,56.76766
1683.7009165816057,16870.537,56.653557
1683.7023054766541,16900.516,56.663055
1683.703694371703,16950.72,56.683006
1683.7050832667514,16565.783,56.63144
1683.7064721618008,15987.801,56.551075
1683.7078610568506,15428.833,56.46897
1683.7092499518988,15659.136,56.51436
1683.710638846947,15359.186,56.480602
1683.7120277417634,15179.347,56.465847
1683.7134166368119,14949.677,56.43937
1683.7148055318607,14353.042,56.351074
1683.7161944269105,13778.194,56.276016
1683.7175833219596,14053.869,56.330765
1683.7189722170078,13388.296,56.234974
1683.7203611120563,13424.855,56.25126
1683.7217500071056,12904.513,56.17366
1683.7231389019216,12146.021,56.06914
1683.724527796971,12630.232,56.16224
1683.7259166920198,12197.853,56.103058
1683.7273055870683,11396.102,55.980038
1683.7286944821167,11232.2295,55.96663
1683.7300833769327,11476.518,56.01582
1683.731472271982,10843.86,55.933594
1683.732861167031,11022.84,55.983032
1683.7342500620803,10537.443,55.90823
1683.7356389571285,10054.583,55.846413
1683.7370278519438,10062.391,55.868565
1683.7384167469936,9561.063,55.795704
1683.739805642043,9435.272,55.78021
1683.7411945368585,9296.338,55.77267
1683.7425834319074,9053.058,55.748207
1683.7453612220042,8611.683,55.710297
1683.7467501168212,8157.8184,55.651737
1683.748139011871,8178.2856,55.662624
1683.7495279069194,7752.292,55.613216
1683.750916801735,7686.1504,55.61183
1683.7523056967839,7540.5054,55.608803
1683.7536945918323,7090.24,55.543728
1683.7550834866483,6833.922,55.512394
1683.7564723816981,6991.56,55.556046
1683.7578612765137,5593.7485,55.33265
1683.7592501715621,6384.411,55.48348
1683.7606390666115,6628.428,55.538315
1683.7620279614268,6162.8853,55.477993
1683.763416856476,6017.1475,55.464737
1683.764805751293,5866.0625,55.44921
1683.7661946463413,5708.069,55.438454
1683.767583541157,5430.415,55.404263
1683.7689724362058,4959.13,55.346275
1683.770361331255,4709.861,55.305676
1683.7717502260712,4771.172,55.334885
1683.77313912112,4308.401,55.26942
1683.7745280159356,4678.58,55.34594
1683.775916910984,4163.092,55.27138
1683.7773058058006,4107.996,55.27745
1683.7786947008503,3747.948,55.223537
1683.7800835956664,3031.3533,55.109795
1683.7814724907148,3532.7075,55.215244
1683.7828613855309,3407.5032,55.200344
1683.7842502803464,3241.9448,55.187317
1683.7856391753949,3082.671,55.169495
1683.7870280702118,2780.6426,55.12479
1683.788416965261,3146.8323,55.20027
1683.7898058600763,2144.211,55.02848
1683.7911947551256,2123.188,55.034958
1683.7925836499412,2318.775,55.08019
1683.7939725447568,2527.4316,55.126656
1683.7953614398066,1984.9731,55.054836
1683.7967503346226,1770.5437,55.00847
1683.798139229671,1719.1327,55.012295
1683.799528124487,1639.6234,55.007835
1683.8009170193027,1607.7427,55.010647
1683.802305914352,1534.7798,54.998665
1683.803694809169,1203.1315,54.94918
1683.8050837039846,783.14984,54.880173
1683.8064725990328,1355.8013,54.98653
1683.807861493849,761.7448,54.888786
1683.809250388665,637.58057,54.871254
1683.8106392837144,821.5356,54.903446
1683.8120281785305,654.1066,54.884476
1683.813417073347,-84.33826,54.756523
1683.8148059681623,583.66785,54.8723
1683.8161948632105,283.44864,54.819168
1683.817583758027,-263.2478,54.72036
1683.818972652843,145.88875,54.796013
1683.8203615476596,337.4351,54.826565
1683.8217504427084,308.82178,54.825523
1683.823139337524,350.5304,54.83142
1683.8245282323396,513.52496,54.853497
1683.8259171271557,42.807858,54.774208
1683.827306022205,444.7516,54.842216
1683.828694917021,261.6156,54.817913
1683.8300838118375,378.62524,54.816612
1683.8314727066531,314.88818,54.809196
1683.8328616014685,301.87036,54.802177
1683.834250496518,550.53754,54.838223
1683.835639391335,663.1633,54.85416
1683.8370282861506,863.93066,54.88261
1683.8384171809662,379.01697,54.794914
1683.8398060757827,755.91254,54.852875
1683.841194970598,872.65063,54.86423
1683.8425838654143,503.19717,54.79117
1683.843972760464,345.5617,54.759525
1683.8453616552797,679.25854,54.812725
1683.8467505500953,863.18524,54.834587
1683.8481394449113,666.19147,54.795273
1683.849528339727,798.1808,54.811565
1683.850917234543,921.1336,54.822323
1683.85230612936,-16.988922,54.649883
1683.8536950241755,448.83484,54.735977
1683.855083918991,408.1241,54.713703
1683.8564728138076,438.4722,54.708004
1683.8578617086237,508.10614,54.713963
1683.8592506036728,214.84717,54.658062
1683.860639498489,-20.20406,54.60485
1683.8620283933046,-219.812,54.566566
1683.8634172881202,-660.5836,54.472633
1683.8648061829363,-1032.1769,54.412514
1683.8661950777532,-874.5682,54.427917
1683.8675839725695,-1138.969,54.374756
1683.8689728673849,-1397.7031,54.329365
1683.8703617622014,-1614.556,54.280537
1683.871750657017,-1748.5646,54.244015
1683.8731395518325,-2472.2666,54.11264
1683.8745284466495,-3339.1006,53.958054
1683.8759173414655,-2784.374,54.052937
1683.8773062360483,-3130.8975,53.99023
1683.8786951308643,-3852.8577,53.85067
1683.88008402568,-4049.5095,53.81578
1683.8814729204955,-4298.5566,53.763634
1683.8828618153125,-4672.9365,53.692577
1683.884250710129,-5578.7505,53.52659
1683.8856396049443,-5449.887,53.543686
1683.8870284997606,-6363.6436,53.384113
1683.8884173945762,-6467.7925,53.35708
1683.8911951842092,-7532.805,53.15295
1683.8925840790248,-8476.085,53.011356
1683.8953618684238,-8881.325,52.912064
1683.9009174476887,-10765.258,52.59086
1683.9023063425043,-10938.401,52.558857
1683.903695237087,-11439.427,52.476788
1683.905084131903,-11586.272,52.44618
1683.9064730267196,-12257.816,52.33525
1683.9078619215356,-12825.041,52.216465
1683.9092508163521,-12894.593,52.21624
1683.910639710935,-13310.159,52.14594
1683.9120286057503,-13537.563,52.121414
1683.9134175005665,-14548.875,51.942684
1683.9148063953826,-13853.398,52.06451
1683.916195290199,-15108.521,51.848553
1683.9175841847823,-14832.216,51.88947
1683.918973079598,-15099.764,51.869778
1683.9203619744135,-15372.159,51.829514
1683.9217508692304,-15762.368,51.75479
1683.9231397638137,-16082.247,51.712513
1683.9245286586292,-16480.764,51.643627
1683.9259175534457,-16445.104,51.667313
1683.9273064482618,-16636.406,51.639248
1683.9300842376608,-16941.295,51.60693
1683.9314731324775,-17071.32,51.595264
1683.9328620270603,-17293.973,51.56232
1683.934250921876,-17280.986,51.579895
1683.9356398166924,-17136.941,51.623436
1683.9370287112752,-16896.988,51.672657
1683.9384176060912,-16900.275,51.68325
1683.9398065009082,-16542.838,51.75375
1683.941195395491,-16292.625,51.817238
1683.9425842903065,-15742.786,51.927216
1683.9439731851226,-15384.317,52.006268
1683.9453620797053,-14739.476,52.132587
1683.9467509745218,-14396.924,52.199417
1683.9481398693385,-13187.888,52.43515
1683.949528763921,-12849.508,52.498207
1683.9509176587367,-11111.761,52.816696
1683.9523065535532,-10340.03,52.96225
1683.9536954481364,-8740.795,53.26089
1683.955084342953,-6720.0947,53.620293
1683.956473237536,-5166.3735,53.893063
1683.9578621323521,-2852.317,54.301258
1683.9606399217505,2132.2766,55.161987
1683.9620288165675,5933.1353,55.798325
1683.9634177111511,9147.784,56.33233
1683.9648066059667,13281.815,57.0257
1683.96619550055,17407.457,57.681145
1683.9675843953655,21539.604,58.347427
1683.9689732899483,25509.092,58.972126
1683.9703621847652,29198.617,59.56128
1683.9717510795813,32714.465,60.10915
1683.973139974164,35517.234,60.54839
1683.9745288689803,37022.24,60.782112
1683.9759177635628,38453.688,61.01368
1683.9773066583793,39074.676,61.11412
1683.9786955529635,39322.277,61.15561
1683.980084447779,40632.52,61.37356
1683.9814733423618,40640.305,61.376938
1683.9828622371779,41680.984,61.539585
1683.9842511317613,42638.547,61.691372
1683.9856400265776,44764.508,62.013973
1683.9870289211608,46284.25,62.243603
1683.9884178157445,48474.434,62.574158
1683.98980671056,50525.58,62.883083
1683.9911956051428,53036.812,63.24974
1683.9925844999589,54644.34,63.479378
1683.9953622893586,59612.426,64.19875
1683.9981400787574,65402.42,65.0339
1683.9995289733401,67798.16,65.377525
1684.0009178679236,69963.32,65.676735
1684.0023067627399,71827.94,65.94055
1684.003695657323,73502.05,66.16501
1684.0050845521396,74958.67,66.37071
1684.0064734467223,76596.69,66.60135
1684.007862341305,77352.61,66.69223
1684.009251236122,78550.14,66.859665
1684.0106401307053,79656.73,67.01182
1684.0120290255209,80139.5,67.080795
1684.013417920104,80667.44,67.14136
1684.0148068146877,81114.15,67.201935
1684.0161957095033,81075.1,67.19564
1684.0175846040866,81255.086,67.21277
1684.0189734986707,81267.63,67.20501
1684.0203623934863,81117.586,67.18986
1684.021751288069,80570.06,67.09638
1684.0231401826522,80753.47,67.12361
1684.0245290774678,80487.96,67.08036
1684.0259179720515,79386.81,66.90966
1684.0273068666356,78736.28,66.82636
1684.028695761451,78647.07,66.79868
1684.0300846560335,77519.26,66.63681
1684.0314735506172,77390.99,66.60821
1684.0328624454328,77560.766,66.62388
1684.034251340016,75917.516,66.38699
1684.0356402346001,75781.82,66.35353
1684.0370291291829,75564.96,66.31349
1684.0384180239985,75055.06,66.235435
1684.0398069185817,74189.47,66.09643
1684.0411958131654,73283.85,65.9593
1684.0425847077486,72362.53,65.82394
1684.043973602565,72119.25,65.77786
1684.0453624971483,71529.195,65.67223
1684.046751391731,71094.016,65.59729
1684.0481402863138,70399.734,65.492775
1684.0495291811308,70050.31,65.42663
1684.050918075714,69509.305,65.332085
1684.0550847596958,67766.234,65.03964
1684.0564736542783,66483.76,64.84938
1684.0578625488624,66768.63,64.86773
1684.059251443446,66222.09,64.77434
1684.0606403380289,65781.02,64.70114
1684.062029232612,65371.406,64.62739
1684.0634181274277,64800.086,64.52201
1684.0648070220104,64837.79,64.51403
1684.0661959165946,63711.316,64.33464
1684.0675848111778,62150.93,64.093544
1684.0689737057605,62048.08,64.06183
1684.070362600577,62201.133,64.06666
1684.0717514951596,62350.117,64.07226
1684.073140389743,61879.008,63.99272
1684.0745292843271,61586.2,63.935867
1684.0759181789103,60533.496,63.76724
1684.077307073493,60390.93,63.73174
1684.0786959680759,59673.164,63.606815
1684.0800848626595,60183.117,63.67106
1684.0814737574756,59556.934,63.56684
1684.0828626520588,59061.64,63.47658
1684.0842515466425,58720.785,63.410713
1684.0856404412252,58548.836,63.37205
1684.087029335808,57784.234,63.250446
1684.0884182303912,56350.2,63.030476
1684.0898071249746,56355.152,63.01994
1684.091196019558,57148.53,63.10976
1684.0925849141413,56179.0,62.972183
1684.093973808724,56480.668,62.997807
1684.0953627035396,55476.293,62.839355
1684.0967515981233,55632.496,62.859356
1684.0981404927065,55141.723,62.776627
1684.09952938729,54625.617,62.683887
1684.1009182818734,54760.438,62.705048
1684.1036960710394,52890.977,62.399178
1684.105084965623,53732.586,62.5249
1684.1064738602072,53134.055,62.43199
1684.1078627547897,52522.562,62.32828
1684.1092516493723,52529.582,62.321796
1684.110640543956,52249.863,62.276936
1684.1120294385387,52211.664,62.27417
1684.113418333122,51338.758,62.13478
1684.114807227706,51224.844,62.11096
1684.1175850168715,49688.23,61.87357
1684.1189739114548,49822.082,61.910473
1684.1203628060375,48838.76,61.752895
1684.1217517006212,47269.266,61.507843
1684.1231405952053,48878.676,61.75543
1684.124529489788,48331.086,61.67459
1684.1259183843706,47758.93,61.59836
